voltage	current
-0.88	-0.006023
-0.84	-0.005794
-0.8	-0.005519
-0.76	-0.005131
-0.72	-0.004639
-0.68	-0.003966
-0.64	-0.00302
-0.6	-0.001802
-0.56	-0.000264
-0.52	0.001561
-0.48	0.003837
-0.44	0.006697
-0.4	0.009917
-0.36	0.013767
-0.32	0.018837
-0.28	0.02414
-0.24	0.030272
-0.2	0.036661
-0.16	0.04432
-0.12	0.053
-0.08	0.063848
-0.04	0.075639
0	0.087836
