voltage	current
-1.16	-0.002233
-1.12	-0.002204
-1.08	-0.002204
-1.04	-0.002157
-1	-0.002139
-0.96	-0.002066
-0.92	-0.002026
-0.88	-0.001985
-0.84	-0.001893
-0.8	-0.001765
-0.76	-0.001646
-0.72	-0.00152
-0.68	-0.001365
-0.64	-0.001162
-0.6	-0.000943
-0.56	-0.000724
-0.52	-0.000436
-0.48	-0.000114
-0.44	0.000194
-0.4	0.000594
-0.36	0.001072
-0.32	0.001538
-0.28	0.002094
-0.24	0.002678
-0.2	0.003495
-0.16	0.004177
-0.12	0.004921
-0.08	0.005729
-0.04	0.006694
0	0.007777
